ID,revolutions,humidity,vibration
1,93.744,73.999,18.0
2,93.74,73.999,18.0
4,93.732,73.998,18.0
5,93.729,73.998,18.0
7,93.721,73.997,18.01
9,93.713,73.996,18.01
10,93.709,73.996,18.01
11,93.705,73.996,18.0
12,93.702,73.995,18.01
13,93.698,73.995,18.01
14,93.694,73.995,18.01
16,93.686,73.994,18.02
17,93.682,73.994,18.02
18,93.678,73.993,18.02
19,93.675,73.993,18.02
20,93.671,73.993,18.02
22,93.663,73.992,18.02
23,93.659,73.992,18.02
24,93.655,73.992,18.02
25,93.651,73.991,18.02
29,93.636,73.99,18.03
30,93.632,73.99,18.03
31,93.628,73.989,18.0
32,93.624,73.989,18.03
33,93.621,73.989,18.03
34,93.617,73.988,18.03
35,93.613,73.988,18.03
36,93.609,73.988,18.04
38,93.601,73.987,18.04
40,93.594,73.986,18.04
41,93.59,73.986,18.0
42,93.586,73.986,18.04
43,93.582,73.985,18.04
44,93.578,73.985,18.04
45,93.574,73.985,18.04
46,93.57,73.984,18.05
47,93.567,73.984,18.05
48,93.563,73.984,18.05
49,93.559,73.983,18.05
50,93.555,73.983,18.05
52,93.547,73.982,18.05
53,93.543,73.982,18.05
54,93.54,73.982,18.05
55,93.536,73.981,18.05
56,93.532,73.981,18.06
57,93.528,73.981,18.06
58,93.524,73.98,18.06
59,93.52,73.98,18.06
60,93.516,73.98,18.06
61,93.513,73.979,18.0
62,93.509,73.979,18.06
63,93.505,73.979,18.06
66,93.493,73.978,18.07
67,93.489,73.977,18.07
68,93.486,73.977,18.07
69,93.482,73.977,18.07
70,93.478,73.977,18.07
71,93.474,73.976,18.0
72,93.47,73.976,18.07
73,93.466,73.976,18.07
74,93.462,73.975,18.07
76,93.455,73.975,18.08
78,93.447,73.974,18.08
79,93.443,73.974,18.08
80,93.439,73.973,18.08
81,93.435,73.973,18.0
82,93.432,73.973,18.08
83,93.428,73.972,18.08
84,93.424,73.972,18.08
85,93.42,73.972,18.08
86,93.416,73.971,18.09
87,93.412,73.971,18.09
89,93.404,73.97,18.09
90,93.401,73.97,18.09
92,93.393,73.969,18.09
93,93.389,73.969,18.09
94,93.385,73.969,18.09
95,93.381,73.968,18.09
97,93.374,73.968,18.1
99,93.366,73.967,18.1
100,93.362,73.967,18.1
101,93.358,73.966,18.0
102,93.354,73.966,18.1
103,93.35,73.966,18.1
104,93.347,73.965,18.1
105,93.343,73.965,18.1
106,93.339,73.965,18.11
107,93.335,73.964,18.11
108,93.331,73.964,18.11
109,93.327,73.964,18.11
111,93.32,73.963,18.0
113,93.312,73.962,18.11
114,93.308,73.962,18.11
115,93.304,73.962,18.11
116,93.3,73.962,18.12
117,93.296,73.961,18.12
119,93.289,73.961,18.12
122,93.277,73.96,18.12
123,93.273,73.959,18.12
124,93.269,73.959,18.12
126,93.262,73.958,18.13
127,93.258,73.958,18.13
128,93.254,73.958,18.13
129,93.25,73.957,18.13
130,93.246,73.957,18.13
131,93.242,73.957,18.13
132,93.239,73.956,18.13
133,93.235,73.956,18.13
134,93.231,73.956,18.13
135,93.227,73.955,18.13
136,93.223,73.955,18.14
138,93.215,73.954,18.14
139,93.212,73.954,18.14
140,93.208,73.954,18.14
142,93.2,73.953,18.14
143,93.196,73.953,18.14
145,93.188,73.952,18.14
146,93.185,73.952,18.15
147,93.181,73.951,18.15
148,93.177,73.951,18.15
149,93.173,73.951,18.15
150,93.169,73.95,18.15
151,93.165,73.95,18.15
152,93.161,73.95,18.15
154,93.154,73.949,18.15
155,93.15,73.949,18.15
160,93.131,73.947,18.16
161,93.127,73.947,18.16
163,93.119,73.946,18.16
164,93.115,73.946,18.16
166,93.107,73.945,18.17
167,93.104,73.945,18.17
169,93.096,73.944,18.17
170,93.092,73.944,18.17
172,93.084,73.943,18.17
173,93.08,73.943,18.17
174,93.077,73.943,18.17
175,93.073,73.942,18.17
176,93.069,73.942,18.18
177,93.065,73.942,18.18
178,93.061,73.941,18.18
179,93.057,73.941,18.18
180,93.053,73.941,18.18
181,93.05,73.94,18.18
182,93.046,73.94,18.18
183,93.042,73.94,18.18
184,93.038,73.939,18.18
185,93.034,73.939,18.18
187,93.026,73.938,18.19
188,93.023,73.938,18.19
189,93.019,73.938,18.19
190,93.015,73.937,18.19
192,93.007,73.937,18.19
195,92.996,73.936,18.19
196,92.992,73.935,18.2
197,92.988,73.935,18.2
198,92.984,73.935,18.2
199,92.98,73.934,18.2
200,92.976,73.934,18.2
201,92.972,73.934,18.0
202,92.969,73.933,18.2
205,92.957,73.932,18.2
206,92.953,73.932,18.21
207,92.949,73.932,18.21
208,92.945,73.932,18.21
209,92.942,73.931,18.21
210,92.938,73.931,18.21
211,92.934,73.931,18.21
212,92.93,73.93,18.21
213,92.926,73.93,18.21
214,92.922,73.93,18.21
215,92.918,73.929,18.21
216,92.915,73.929,18.22
217,92.911,73.929,18.22
219,92.903,73.928,18.22
220,92.899,73.928,18.22
221,92.895,73.927,18.22
222,92.891,73.927,18.22
223,92.888,73.927,18.22
224,92.884,73.926,18.22
225,92.88,73.926,18.22
226,92.876,73.926,18.23
227,92.872,73.925,18.23
231,92.857,73.924,18.23
232,92.853,73.924,18.23
233,92.849,73.923,18.23
234,92.845,73.923,18.23
235,92.841,73.923,18.23
236,92.837,73.922,18.24
238,92.83,73.922,18.24
239,92.826,73.921,18.24
240,92.822,73.921,18.24
242,92.814,73.92,18.24
243,92.81,73.92,18.24
244,92.807,73.92,18.24
246,92.799,73.919,18.25
247,92.795,73.919,18.25
249,92.787,73.918,18.25
251,92.779,73.917,18.25
252,92.776,73.917,18.25
253,92.772,73.917,18.25
255,92.764,73.916,18.25
256,92.76,73.916,18.26
257,92.756,73.916,18.26
258,92.752,73.915,18.26
259,92.749,73.915,18.26
260,92.745,73.915,18.26
262,92.737,73.914,18.26
263,92.733,73.914,18.26
264,92.729,73.913,18.26
266,92.722,73.913,18.27
267,92.718,73.912,18.27
268,92.714,73.912,18.27
269,92.71,73.912,18.27
270,92.706,73.911,18.27
271,92.702,73.911,18.27
272,92.698,73.911,18.27
273,92.695,73.91,18.27
274,92.691,73.91,18.27
275,92.687,73.91,18.27
276,92.683,73.909,18.28
277,92.679,73.909,18.28
278,92.675,73.909,18.28
279,92.671,73.908,18.28
280,92.668,73.908,18.28
281,92.664,73.908,18.28
282,92.66,73.907,18.28
283,92.656,73.907,18.28
284,92.652,73.907,18.28
285,92.648,73.906,18.28
286,92.644,73.906,18.29
288,92.637,73.905,18.29
289,92.633,73.905,18.29
290,92.629,73.905,18.29
291,92.625,73.904,18.29
292,92.621,73.904,18.29
293,92.617,73.904,18.29
294,92.614,73.903,18.29
296,92.606,73.903,18.3
297,92.602,73.903,18.3
298,92.598,73.902,18.3
299,92.594,73.902,18.3
300,92.59,73.902,18.3
301,92.587,73.901,18.0
302,92.583,73.901,18.3
303,92.579,73.901,18.3
304,92.575,73.9,18.3
305,92.571,73.9,18.3
306,92.567,73.9,18.31
307,92.563,73.899,18.31
310,92.552,73.898,18.31
311,92.548,73.898,18.31
312,92.544,73.898,18.31
313,92.54,73.897,18.31
314,92.536,73.897,18.31
315,92.533,73.897,18.31
316,92.529,73.896,18.32
317,92.525,73.896,18.32
319,92.517,73.895,18.32
321,92.509,73.895,18.32
322,92.506,73.894,18.32
326,92.49,73.893,18.33
327,92.486,73.893,18.33
328,92.482,73.892,18.33
329,92.479,73.892,18.33
330,92.475,73.892,18.33
331,92.471,73.891,18.33
332,92.467,73.891,18.33
333,92.463,73.891,18.33
334,92.459,73.89,18.33
335,92.455,73.89,18.33
336,92.452,73.89,18.34
337,92.448,73.889,18.34
339,92.44,73.889,18.34
340,92.436,73.888,18.34
342,92.428,73.888,18.34
344,92.421,73.887,18.34
345,92.417,73.887,18.34
348,92.405,73.886,18.35
349,92.401,73.886,18.35
350,92.398,73.885,18.35
351,92.394,73.885,18.35
352,92.39,73.885,18.35
353,92.386,73.884,18.35
354,92.382,73.884,18.35
356,92.374,73.883,18.36
357,92.371,73.883,18.36
358,92.367,73.883,18.36
360,92.359,73.882,18.36
361,92.355,73.882,18.36
362,92.351,73.881,18.36
363,92.347,73.881,18.36
364,92.344,73.881,18.36
365,92.34,73.88,18.36
366,92.336,73.88,18.37
368,92.328,73.879,18.37
369,92.324,73.879,18.37
370,92.32,73.879,18.37
371,92.317,73.878,18.37
372,92.313,73.878,18.37
373,92.309,73.878,18.37
374,92.305,73.877,18.37
375,92.301,73.877,18.37
376,92.297,73.877,18.38
377,92.293,73.876,18.38
378,92.29,73.876,18.38
379,92.286,73.876,18.38
380,92.282,73.875,18.38
381,92.278,73.875,18.38
382,92.274,73.875,18.38
383,92.27,73.874,18.38
384,92.266,73.874,18.38
385,92.263,73.874,18.38
389,92.247,73.873,18.39
390,92.243,73.872,18.39
391,92.239,73.872,18.39
393,92.232,73.871,18.39
394,92.228,73.871,18.39
395,92.224,73.871,18.39
397,92.216,73.87,18.4
399,92.209,73.869,18.4
400,92.205,73.869,18.4
401,92.201,73.869,18.0
402,92.197,73.868,18.4
403,92.193,73.868,18.4
404,92.189,73.868,18.4
406,92.182,73.867,18.41
407,92.178,73.867,18.41
408,92.174,73.866,18.41
409,92.17,73.866,18.41
410,92.166,73.866,18.41
411,92.162,73.865,18.41
412,92.158,73.865,18.41
413,92.155,73.865,18.41
415,92.147,73.864,18.41
416,92.143,73.864,18.42
417,92.139,73.863,18.42
418,92.135,73.863,18.42
419,92.131,73.863,18.42
420,92.127,73.862,18.42
421,92.124,73.862,18.42
422,92.12,73.862,18.42
423,92.116,73.861,18.42
424,92.112,73.861,18.42
425,92.108,73.861,18.42
428,92.097,73.86,18.43
430,92.089,73.859,18.43
431,92.085,73.859,18.43
433,92.077,73.858,18.43
435,92.07,73.858,18.43
436,92.066,73.857,18.44
437,92.062,73.857,18.44
441,92.046,73.856,18.44
443,92.039,73.855,18.44
444,92.035,73.855,18.44
446,92.027,73.854,18.45
447,92.023,73.854,18.45
448,92.019,73.853,18.45
450,92.012,73.853,18.45
451,92.008,73.852,18.45
452,92.004,73.852,18.45
453,92.0,73.852,18.45
454,91.996,73.851,18.45
455,91.992,73.851,18.45
456,91.989,73.851,18.46
458,91.981,73.85,18.46
459,91.977,73.85,18.46
460,91.973,73.849,18.46
464,91.958,73.848,18.46
465,91.954,73.848,18.46
466,91.95,73.847,18.47
467,91.946,73.847,18.47
468,91.942,73.847,18.47
469,91.938,73.846,18.47
470,91.935,73.846,18.47
471,91.931,73.846,18.47
472,91.927,73.845,18.47
473,91.923,73.845,18.47
475,91.915,73.844,18.47
476,91.911,73.844,18.48
477,91.908,73.844,18.48
478,91.904,73.843,18.48
480,91.896,73.843,18.48
481,91.892,73.843,18.48
482,91.888,73.842,18.48
483,91.884,73.842,18.48
485,91.877,73.841,18.48
486,91.873,73.841,18.49
487,91.869,73.841,18.49
488,91.865,73.84,18.49
489,91.861,73.84,18.49
490,91.857,73.84,18.49
491,91.854,73.839,18.49
492,91.85,73.839,18.49
494,91.842,73.838,18.49
495,91.838,73.838,18.49
498,91.827,73.837,18.5
499,91.823,73.837,18.5
500,91.819,73.836,18.5
502,91.811,73.836,18.5
503,91.807,73.835,18.5
504,91.803,73.835,18.5
505,91.8,73.835,18.5
506,91.796,73.834,18.51
508,91.788,73.834,18.51
509,91.784,73.833,18.51
510,91.78,73.833,18.51
512,91.773,73.832,18.51
513,91.769,73.832,18.51
515,91.761,73.831,18.51
517,91.753,73.831,18.52
518,91.749,73.83,18.52
519,91.746,73.83,18.52
520,91.742,73.83,18.52
521,91.738,73.83,18.52
522,91.734,73.829,18.52
523,91.73,73.829,18.52
524,91.726,73.829,18.52
525,91.722,73.828,18.52
526,91.718,73.828,18.53
527,91.715,73.828,18.53
528,91.711,73.827,18.53
529,91.707,73.827,18.53
531,91.699,73.826,18.53
532,91.695,73.826,18.53
533,91.691,73.826,18.53
534,91.688,73.825,18.53
536,91.68,73.825,18.54
537,91.676,73.824,18.54
538,91.672,73.824,18.54
539,91.668,73.824,18.54
540,91.664,73.823,18.54
541,91.661,73.823,18.54
542,91.657,73.823,18.54
543,91.653,73.822,18.54
544,91.649,73.822,18.54
545,91.645,73.822,18.54
546,91.641,73.821,18.55
547,91.637,73.821,18.55
548,91.634,73.821,18.55
550,91.626,73.82,18.55
551,91.622,73.82,18.55
553,91.614,73.819,18.55
554,91.61,73.819,18.55
555,91.607,73.819,18.55
556,91.603,73.818,18.56
557,91.599,73.818,18.56
558,91.595,73.818,18.56
559,91.591,73.817,18.56
560,91.587,73.817,18.56
561,91.583,73.817,18.56
562,91.58,73.816,18.56
563,91.576,73.816,18.56
564,91.572,73.816,18.56
565,91.568,73.815,18.56
566,91.564,73.815,18.57
568,91.556,73.814,18.57
569,91.553,73.814,18.57
571,91.545,73.813,18.57
572,91.541,73.813,18.57
575,91.529,73.812,18.57
577,91.522,73.811,18.58
578,91.518,73.811,18.58
579,91.514,73.811,18.58
580,91.51,73.81,18.58
581,91.506,73.81,18.58
583,91.498,73.809,18.58
586,91.487,73.808,18.59
587,91.483,73.808,18.59
589,91.475,73.807,18.59
590,91.471,73.807,18.59
591,91.468,73.807,18.59
592,91.464,73.807,18.59
593,91.46,73.806,18.59
594,91.456,73.806,18.59
596,91.448,73.805,18.6
597,91.444,73.805,18.6
598,91.441,73.805,18.6
599,91.437,73.804,18.6
600,91.433,73.804,18.6
601,91.429,73.804,18.0
602,91.425,73.803,18.6
604,91.417,73.803,18.6
605,91.414,73.802,18.6
606,91.41,73.802,18.61
607,91.406,73.802,18.61
608,91.402,73.801,18.61
609,91.398,73.801,18.61
610,91.394,73.801,18.61
612,91.387,73.8,18.61
613,91.383,73.8,18.61
614,91.379,73.799,18.61
615,91.375,73.799,18.61
616,91.371,73.799,18.62
617,91.367,73.798,18.62
618,91.363,73.798,18.62
619,91.36,73.798,18.62
620,91.356,73.797,18.62
622,91.348,73.797,18.62
623,91.344,73.796,18.62
624,91.34,73.796,18.62
625,91.336,73.796,18.62
626,91.332,73.796,18.63
627,91.329,73.795,18.63
628,91.325,73.795,18.63
629,91.321,73.795,18.63
630,91.317,73.794,18.63
633,91.305,73.793,18.63
634,91.302,73.793,18.63
635,91.298,73.793,18.63
636,91.294,73.792,18.64
637,91.29,73.792,18.64
640,91.278,73.791,18.64
641,91.275,73.791,18.64
642,91.271,73.79,18.64
643,91.267,73.79,18.64
644,91.263,73.79,18.64
646,91.255,73.789,18.65
648,91.248,73.788,18.65
649,91.244,73.788,18.65
650,91.24,73.788,18.65
651,91.236,73.787,18.65
652,91.232,73.787,18.65
654,91.224,73.786,18.65
655,91.221,73.786,18.65
656,91.217,73.786,18.66
657,91.213,73.785,18.66
659,91.205,73.785,18.66
660,91.201,73.784,18.66
661,91.197,73.784,18.66
662,91.194,73.784,18.66
663,91.19,73.784,18.66
665,91.182,73.783,18.66
666,91.178,73.783,18.67
667,91.174,73.782,18.67
668,91.17,73.782,18.67
669,91.167,73.782,18.67
670,91.163,73.781,18.67
671,91.159,73.781,18.67
673,91.151,73.78,18.67
674,91.147,73.78,18.67
676,91.139,73.779,18.68
678,91.132,73.779,18.68
679,91.128,73.778,18.68
680,91.124,73.778,18.68
681,91.12,73.778,18.68
682,91.116,73.777,18.68
683,91.112,73.777,18.68
684,91.109,73.777,18.68
686,91.101,73.776,18.69
687,91.097,73.776,18.69
688,91.093,73.775,18.69
689,91.089,73.775,18.69
690,91.085,73.775,18.69
691,91.082,73.774,18.69
692,91.078,73.774,18.69
693,91.074,73.774,18.69
695,91.066,73.773,18.69
696,91.062,73.773,18.7
697,91.058,73.772,18.7
698,91.055,73.772,18.7
699,91.051,73.772,18.7
700,91.047,73.772,18.7
702,91.039,73.771,18.7
703,91.035,73.771,18.7
704,91.031,73.77,18.7
705,91.028,73.77,18.7
706,91.024,73.77,18.71
708,91.016,73.769,18.71
709,91.012,73.769,18.71
710,91.008,73.768,18.71
711,91.004,73.768,18.71
712,91.001,73.768,18.71
713,90.997,73.767,18.71
714,90.993,73.767,18.71
715,90.989,73.767,18.71
717,90.981,73.766,18.72
718,90.977,73.766,18.72
719,90.974,73.765,18.72
720,90.97,73.765,18.72
721,90.966,73.765,18.72
723,90.958,73.764,18.72
724,90.954,73.764,18.72
725,90.95,73.763,18.72
726,90.947,73.763,18.73
727,90.943,73.763,18.73
728,90.939,73.762,18.73
729,90.935,73.762,18.73
730,90.931,73.762,18.73
731,90.927,73.761,18.73
732,90.923,73.761,18.73
734,90.916,73.761,18.73
736,90.908,73.76,18.74
738,90.9,73.759,18.74
739,90.896,73.759,18.74
740,90.892,73.759,18.74
742,90.885,73.758,18.74
743,90.881,73.758,18.74
744,90.877,73.757,18.74
745,90.873,73.757,18.74
746,90.869,73.757,18.75
748,90.862,73.756,18.75
751,90.85,73.755,18.75
752,90.846,73.755,18.75
753,90.842,73.754,18.75
754,90.838,73.754,18.75
755,90.835,73.754,18.75
756,90.831,73.753,18.76
758,90.823,73.753,18.76
759,90.819,73.752,18.76
760,90.815,73.752,18.76
762,90.808,73.751,18.76
763,90.804,73.751,18.76
764,90.8,73.751,18.76
765,90.796,73.75,18.76
766,90.792,73.75,18.77
768,90.784,73.749,18.77
769,90.781,73.749,18.77
770,90.777,73.749,18.77
771,90.773,73.749,18.77
772,90.769,73.748,18.77
774,90.761,73.748,18.77
775,90.757,73.747,18.77
776,90.754,73.747,18.78
777,90.75,73.747,18.78
778,90.746,73.746,18.78
780,90.738,73.746,18.78
781,90.734,73.745,18.78
782,90.73,73.745,18.78
783,90.726,73.745,18.78
784,90.723,73.744,18.78
785,90.719,73.744,18.78
786,90.715,73.744,18.79
787,90.711,73.743,18.79
788,90.707,73.743,18.79
789,90.703,73.743,18.79
790,90.699,73.742,18.79
792,90.692,73.742,18.79
793,90.688,73.741,18.79
794,90.684,73.741,18.79
795,90.68,73.741,18.79
797,90.672,73.74,18.8
798,90.669,73.74,18.8
799,90.665,73.739,18.8
800,90.661,73.739,18.8
801,90.657,73.739,18.0
803,90.649,73.738,18.8
804,90.645,73.738,18.8
806,90.638,73.737,18.81
807,90.634,73.737,18.81
808,90.63,73.737,18.81
809,90.626,73.736,18.81
810,90.622,73.736,18.81
811,90.618,73.736,18.81
812,90.615,73.735,18.81
813,90.611,73.735,18.81
814,90.607,73.735,18.81
815,90.603,73.734,18.81
816,90.599,73.734,18.82
818,90.591,73.733,18.82
819,90.588,73.733,18.82
821,90.58,73.732,18.82
822,90.576,73.732,18.82
823,90.572,73.732,18.82
824,90.568,73.731,18.82
825,90.564,73.731,18.82
826,90.56,73.731,18.83
827,90.557,73.73,18.83
829,90.549,73.73,18.83
830,90.545,73.729,18.83
832,90.537,73.729,18.83
833,90.533,73.728,18.83
834,90.53,73.728,18.83
836,90.522,73.727,18.84
837,90.518,73.727,18.84
838,90.514,73.727,18.84
839,90.51,73.726,18.84
840,90.506,73.726,18.84
841,90.503,73.726,18.84
842,90.499,73.726,18.84
843,90.495,73.725,18.84
844,90.491,73.725,18.84
846,90.483,73.724,18.85
847,90.479,73.724,18.85
849,90.472,73.723,18.85
850,90.468,73.723,18.85
851,90.464,73.723,18.85
852,90.46,73.722,18.85
854,90.452,73.722,18.85
856,90.445,73.721,18.86
857,90.441,73.721,18.86
858,90.437,73.72,18.86
859,90.433,73.72,18.86
860,90.429,73.72,18.86
861,90.425,73.719,18.86
862,90.422,73.719,18.86
863,90.418,73.719,18.86
864,90.414,73.718,18.86
865,90.41,73.718,18.86
866,90.406,73.718,18.87
869,90.395,73.717,18.87
870,90.391,73.716,18.87
871,90.387,73.716,18.87
873,90.379,73.715,18.87
874,90.375,73.715,18.87
875,90.371,73.715,18.87
876,90.368,73.715,18.88
877,90.364,73.714,18.88
879,90.356,73.714,18.88
880,90.352,73.713,18.88
881,90.348,73.713,18.88
882,90.344,73.713,18.88
885,90.333,73.712,18.88
886,90.329,73.711,18.89
887,90.325,73.711,18.89
888,90.321,73.711,18.89
889,90.317,73.71,18.89
890,90.313,73.71,18.89
892,90.306,73.709,18.89
893,90.302,73.709,18.89
894,90.298,73.709,18.89
895,90.294,73.708,18.89
896,90.29,73.708,18.9
897,90.286,73.708,18.9
898,90.283,73.707,18.9
899,90.279,73.707,18.9
900,90.275,73.707,18.9
901,90.271,73.706,18.0
902,90.267,73.706,18.9
903,90.263,73.706,18.9
906,90.252,73.705,18.91
907,90.248,73.704,18.91
908,90.244,73.704,18.91
910,90.236,73.703,18.91
912,90.229,73.703,18.91
913,90.225,73.703,18.91
914,90.221,73.702,18.91
915,90.217,73.702,18.91
916,90.213,73.702,18.92
917,90.209,73.701,18.92
919,90.202,73.701,18.92
920,90.198,73.7,18.92
921,90.194,73.7,18.92
923,90.186,73.699,18.92
925,90.178,73.699,18.92
926,90.174,73.698,18.93
927,90.171,73.698,18.93
928,90.167,73.698,18.93
929,90.163,73.697,18.93
931,90.155,73.697,18.93
932,90.151,73.696,18.93
933,90.147,73.696,18.93
934,90.144,73.696,18.93
935,90.14,73.695,18.93
937,90.132,73.695,18.94
938,90.128,73.694,18.94
940,90.12,73.694,18.94
941,90.117,73.693,18.94
942,90.113,73.693,18.94
943,90.109,73.693,18.94
944,90.105,73.692,18.94
945,90.101,73.692,18.94
946,90.097,73.692,18.95
947,90.093,73.691,18.95
948,90.09,73.691,18.95
949,90.086,73.691,18.95
950,90.082,73.691,18.95
951,90.078,73.69,18.95
952,90.074,73.69,18.95
953,90.07,73.69,18.95
955,90.063,73.689,18.95
957,90.055,73.688,18.96
959,90.047,73.688,18.96
961,90.039,73.687,18.96
963,90.032,73.686,18.96
964,90.028,73.686,18.96
966,90.02,73.685,18.97
968,90.012,73.685,18.97
969,90.009,73.684,18.97
970,90.005,73.684,18.97
971,90.001,73.684,18.97
972,89.997,73.683,18.97
974,89.989,73.683,18.97
975,89.985,73.682,18.97
976,89.982,73.682,18.98
977,89.978,73.682,18.98
978,89.974,73.681,18.98
980,89.966,73.681,18.98
982,89.958,73.68,18.98
985,89.947,73.679,18.98
986,89.943,73.679,18.99
988,89.935,73.678,18.99
989,89.931,73.678,18.99
990,89.927,73.678,18.99
992,89.92,73.677,18.99
993,89.916,73.677,18.99
994,89.912,73.676,18.99
995,89.908,73.676,18.99
996,89.904,73.676,19.0
997,89.9,73.675,19.0
998,89.897,73.675,19.0
999,89.893,73.675,19.0
1001,89.885,73.674,19.0
1002,89.881,73.674,19.0
1003,89.877,73.673,19.0
1004,89.873,73.673,19.0
1005,89.87,73.673,19.0
1006,89.866,73.672,19.01
1007,89.862,73.672,19.01
1008,89.858,73.672,19.01
1009,89.854,73.671,19.01
1010,89.85,73.671,19.01
1013,89.839,73.67,19.01
1014,89.835,73.67,19.01
1016,89.827,73.669,19.02
1017,89.823,73.669,19.02
1018,89.819,73.668,19.02
1019,89.816,73.668,19.02
1020,89.812,73.668,19.02
1021,89.808,73.668,19.0
1023,89.8,73.667,19.02
1024,89.796,73.667,19.02
1025,89.792,73.666,19.02
1026,89.789,73.666,19.03
1027,89.785,73.666,19.03
1028,89.781,73.665,19.03
1030,89.773,73.665,19.03
1031,89.769,73.664,19.0
1032,89.765,73.664,19.03
1033,89.762,73.664,19.03
1034,89.758,73.663,19.03
1035,89.754,73.663,19.03
1037,89.746,73.662,19.04
1040,89.735,73.661,19.04
1041,89.731,73.661,19.0
1043,89.723,73.66,19.04
1045,89.715,73.66,19.04
1046,89.711,73.659,19.05
1047,89.708,73.659,19.05
1049,89.7,73.658,19.05
1050,89.696,73.658,19.05
1051,89.692,73.658,19.0
1052,89.688,73.657,19.05
1054,89.681,73.657,19.05
1055,89.677,73.657,19.05
